<?xml version="1.0" encoding="UTF-8"?>
<xrdMeasurements xmlns="http://www.xrdml.com/XRDMeasurement/1.7" xmlns:xsi="http://www.w3.org/2001/XMLSchema-instance" xsi:schemaLocation="http://www.xrdml.com/XRDMeasurement/1.7 http://www.xrdml.com/XRDMeasurement/1.7/XRDMeasurement.xsd" status="Completed">
	<comment>
		<entry/>
	</comment>
	<sample type="To be analyzed">
		<id>Dr.MN-dhivya-cscbi1</id>
		<name></name>
		<preparedBy></preparedBy>
	</sample>
	<xrdMeasurement measurementType="Scan" status="Completed" sampleMode="Reflection">
		<usedWavelength intended="K-Alpha 1">
			<kAlpha1 unit="Angstrom">1.5405980</kAlpha1>
			<kAlpha2 unit="Angstrom">1.5444260</kAlpha2>
			<kBeta unit="Angstrom">1.3922500</kBeta>
			<ratioKAlpha2KAlpha1>0.5000</ratioKAlpha2KAlpha1>
		</usedWavelength>
		<incidentBeamPath>
			<radius unit="mm">145.00</radius>
			<xRayTube id="1010048" name="Empyrean Cu LFF HR (9430 033 7310x) DK417632">
				<tension unit="kV">40.0</tension>
				<current unit="mA">15.0</current>
				<anodeMaterial>Cu</anodeMaterial>
				<focus type="Line">
					<length unit="mm">12.0</length>
					<width unit="mm">0.4</width>
					<takeOffAngle unit="deg">6.0</takeOffAngle>
				</focus>
			</xRayTube>
			<filter id="20010004" name="Beta-filter Nickel">
				<material>Ni</material>
				<thickness unit="mm">0.020</thickness>
			</filter>
			<sollerSlit id="21010002" name="Soller slits 0.04 rad.">
				<opening unit="rad">0.0400</opening>
			</sollerSlit>
			<mask id="22031000" name="Fixed mask 13 mm">
				<width unit="mm">9.00</width>
			</mask>
			<divergenceSlit id="22120001" name="Divergence slit 1°" xsi:type="fixedDivergenceSlitType">
				<distanceToSample unit="mm">50.00</distanceToSample>
				<height unit="mm">1.52</height>
			</divergenceSlit>
		</incidentBeamPath>
		<diffractedBeamPath>
			<radius unit="mm">145.00</radius>
			<antiScatterSlit id="22090040" name="AS slit 9 mm" xsi:type="fixedAntiScatterSlitType">
				<height unit="mm">9.00</height>
			</antiScatterSlit>
			<sollerSlit id="21020003" name="Large Soller slits 0.04 rad.">
				<opening unit="rad">0.0400</opening>
			</sollerSlit>
			<detector id="7010019" name="PIXcel1D-Medipix3 detector" xsi:type="rtmsDetectorType">
				<phd unit="keV">
					<lowerLevel>4.0</lowerLevel>
					<upperLevel>11.3</upperLevel>
				</phd>
				<mode>Scanning</mode>
				<activeLength unit="deg">5.542</activeLength>
			</detector>
		</diffractedBeamPath>
		<scan appendNumber="0" mode="Continuous" scanAxis="Gonio" status="Completed">
			<header>
				<startTimeStamp>2024-06-21T11:00:13+05:30</startTimeStamp>
				<endTimeStamp>2024-06-21T11:18:23+05:30</endTimeStamp>
				<author>
					<name>Instrument</name>
				</author>
				<source>
					<applicationSoftware version="Aeris_1.1">Data Collector</applicationSoftware>
					<instrumentControlSoftware version="1.1.0 20171016">AERIS</instrumentControlSoftware>
					<instrumentID>207756</instrumentID>
				</source>
			</header>
			<dataPoints>
				<positions axis="2Theta" unit="deg">
					<startPosition>5.01086644</startPosition>
					<endPosition>100.00528492</endPosition>
				</positions>
				<positions axis="Omega" unit="deg">
					<startPosition>2.50543322</startPosition>
					<endPosition>50.00264246</endPosition>
				</positions>
				<commonCountingTime unit="seconds">58.395</commonCountingTime>
				<intensities unit="counts">2493 2336 2284 2211 2330 2147 2223 2229 2224 2163 2087 2111 2140 2104 2143 2088 2058 2181 2117 2085 2047 2062 2092 2139 2061 2028 2011 2049 2026 2075 2073 1993 1997 2044 1946 1990 2056 1987 2024 2138 1962 2081 2030 2039 2039 2096 1996 2004 2016 2041 2011 2074 2008 2096 1973 2048 2065 1999 2014 2189 2091 2111 2049 2123 2079 2031 2059 2023 2152 2031 2113 2047 2120 2112 2169 2121 2117 2142 2081 2159 2126 2191 2180 2168 2117 2220 2222 2213 2180 2175 2180 2167 2215 2224 2236 2145 2190 2208 2243 2141 2136 2180 2203 2220 2152 2194 2131 2203 2194 2259 2289 2232 2230 2166 2268 2241 2246 2256 2322 2329 2359 2279 2309 2264 2260 2318 2244 2206 2265 2348 2301 2292 2391 2306 2383 2277 2359 2348 2389 2349 2420 2441 2428 2374 2339 2231 2407 2374 2357 2356 2380 2354 2283 2382 2462 2437 2347 2366 2388 2427 2348 2506 2456 2386 2495 2413 2369 2417 2565 2434 2354 2477 2485 2439 2493 2440 2451 2481 2426 2422 2443 2425 2464 2522 2528 2481 2616 2660 2574 2507 2457 2505 2529 2579 2547 2519 2631 2585 2538 2540 2520 2564 2503 2580 2669 2498 2607 2626 2675 2595 2619 2558 2630 2573 2673 2684 2695 2693 2540 2578 2654 2671 2658 2712 2619 2651 2745 2633 2669 2689 2646 2803 2808 2751 2633 2775 2773 2783 2795 2799 2814 2744 2812 2647 2753 2806 2609 2669 2692 2616 2678 2778 2607 2725 2731 2665 2671 2711 2736 2756 2736 2837 2696 2683 2700 2796 2672 2687 2717 2685 2702 2697 2691 2716 2767 2735 2702 2778 2720 2754 2822 2714 2752 2694 2760 2760 2819 2806 2726 2720 2704 2720 2663 2730 2845 2808 2819 2776 2764 2788 2771 2772 2768 2763 2816 2769 2744 2825 2729 2860 2902 2758 2812 2682 2783 2892 2796 2814 2776 2754 2821 2834 2800 2810 2872 2891 2796 2874 2834 2831 2812 2868 2787 2864 2805 2851 2848 2904 2857 2762 2852 2926 2796 2957 2889 2938 2849 2862 2873 2898 2893 2954 2823 2873 2963 2778 2895 2932 2937 2865 2972 2883 2994 2859 2881 2867 2860 2970 2842 2882 2915 2832 2873 2924 2845 2841 2952 2882 3017 3029 2870 2910 2980 2926 2936 2853 2961 2907 2878 2961 2889 2974 2990 2891 2789 2977 3021 2922 2850 2846 2945 3009 2963 2913 2922 2976 2917 3040 2968 2939 2882 2940 2947 2880 2945 2900 2797 2870 3064 3004 2979 2989 2966 3053 2884 2874 2907 2950 3022 3027 3007 2970 2853 2883 3041 3022 2830 3039 3064 2986 2980 3061 2976 3015 3001 2947 2892 3106 3086 3102 2971 3052 2982 3003 2997 2948 3029 3041 3034 3032 3017 3019 2981 2985 2997 3060 2986 2989 3040 2946 3022 2979 3028 3120 3013 3049 3043 2995 3101 3044 3086 3065 2994 2975 3071 2998 3063 2965 2993 2999 2943 3000 3106 3066 3134 3028 3059 3024 3096 3051 2954 2966 3197 3215 3124 3083 3017 2963 3067 3033 3175 3074 3130 3156 3112 3147 3010 3070 3061 3138 3200 3080 3045 3073 3171 3155 3175 3055 3105 3073 3094 3144 3175 3184 3169 3047 3175 3066 3186 3156 3154 3245 3148 3124 3185 3023 3085 3148 3159 3129 3181 3062 3134 3191 3092 3210 3125 3063 3079 3101 3160 3236 3117 3180 3180 3066 3091 3154 3147 3175 3121 3069 3095 3027 3180 3210 3184 3110 3151 3104 3131 3213 3056 3097 3146 3162 3022 3111 3210 3145 3163 3144 3195 3167 3250 3111 3185 3116 3190 3202 3183 3229 3089 3184 3055 3129 3173 3140 3114 3147 3192 3198 3191 3007 3039 3012 3036 3189 3158 3207 3156 3200 3118 3167 3112 3173 3125 3163 3222 3272 3176 3036 3242 3073 3191 3153 3140 3181 3199 3211 3167 3174 3166 3233 3205 3198 3236 3245 3160 3181 3146 3180 3212 3194 3296 3213 3223 3299 3190 3196 3283 3167 3295 3123 3166 3235 3267 3305 3295 3202 3314 3167 3191 3305 3246 3156 3177 3198 3281 3134 3303 3198 3358 3228 3165 3188 3042 3257 3267 3203 3175 3290 3230 3220 3303 3383 3169 3260 3219 3226 3339 3324 3233 3282 3222 3264 3253 3270 3308 3310 3341 3356 3451 3364 3415 3422 3408 3377 3501 3432 3481 3481 3442 3536 3381 3490 3347 3369 3289 3408 3249 3210 3257 3213 3276 3272 3294 3236 3304 3269 3177 3343 3220 3389 3384 3302 3392 3315 3221 3279 3147 3279 3275 3274 3277 3293 3246 3293 3236 3232 3248 3384 3343 3313 3404 3348 3373 3181 3259 3365 3308 3360 3355 3317 3345 3353 3359 3367 3313 3345 3312 3249 3325 3356 3324 3364 3280 3230 3299 3286 3294 3378 3340 3492 3382 3337 3301 3348 3318 3335 3246 3221 3381 3364 3450 3429 3449 3457 3408 3503 3415 3502 3402 3475 3476 3466 3444 3524 3482 3630 3687 3539 3677 3667 3744 3776 3893 3680 3800 3890 3963 3921 3933 4026 4069 4158 4133 4299 4289 4340 4326 4257 4444 4438 4279 4363 4401 4295 4383 4352 4151 4179 4246 3966 4055 3953 3990 3873 3774 3692 3761 3774 3677 3820 3739 3734 3705 3644 3705 3675 3727 3572 3685 3536 3692 3511 3528 3626 3549 3492 3502 3490 3657 3587 3477 3547 3583 3532 3508 3622 3467 3516 3610 3514 3639 3613 3620 3630 3692 3721 3777 3698 3841 3766 3821 3893 3891 4110 4122 4180 4301 4481 4713 4985 5258 5355 5240 5597 5561 5419 5178 5024 5054 4884 4636 4625 4450 4444 4455 4394 4409 4486 4513 4400 4607 4666 4734 4565 4712 4769 5056 5179 5187 5253 5300 5408 5564 5594 5794 5853 6127 6249 6641 6900 7324 7315 7954 8346 9206 9410 10350 10949 12154 13105 14635 16064 17581 19495 21435 23742 26204 28802 31907 35313 38712 42255 44776 47514 49033 48683 47684 46212 44303 41590 39051 37306 34695 32325 29713 27342 24142 21930 19570 17970 16673 15919 14868 15332 15713 16720 18217 19631 21406 22946 23588 23188 21878 20198 17754 15403 13393 11725 10456 9429 8815 8260 7828 7284 7008 6895 6528 6510 6250 6086 6212 5953 6263 6176 6130 6196 6227 6187 6376 6160 6471 6372 6343 6340 6256 6483 6604 6884 6978 7388 7622 8027 8355 8385 8386 8275 8089 8096 8216 8142 8115 8230 8340 8675 8609 8399 7760 7286 6649 6388 5772 5416 5135 4841 4755 4662 4530 4537 4470 4430 4411 4531 4663 4597 4722 4719 4885 4990 5073 5384 5598 5308 5421 5367 5512 5178 5111 4997 4894 4793 4630 4508 4445 4445 4364 4234 4304 4349 4452 4341 4292 4382 4423 4424 4415 4523 4704 4565 4635 4642 4635 4825 4798 4860 5162 5138 5177 5361 5417 5540 5711 5563 5915 5979 5899 5985 6004 6040 5894 6026 5916 5758 5783 5583 5624 5257 5341 5102 4985 5028 4833 4684 4693 4683 4686 4574 4391 4412 4461 4386 4207 4235 4184 4383 4298 4290 4411 4429 4567 4521 4552 4729 4668 4641 4585 4429 4528 4370 4280 4135 4138 4056 4029 4171 4097 4062 4192 4218 3989 4079 4318 4319 4414 4553 4649 5021 5330 5674 6414 7366 8449 10092 11390 11699 11125 10835 10435 9724 8568 7702 7087 6498 5877 5401 5059 4782 4610 4438 4234 4096 4149 3949 4031 3946 3745 3819 3792 3806 3700 3729 3820 3752 3649 3800 3713 3738 3709 3668 3597 3593 3745 3696 3565 3680 3660 3603 3625 3530 3673 3605 3628 3757 3682 3721 3537 3577 3563 3553 3569 3527 3572 3457 3382 3386 3483 3613 3456 3475 3513 3530 3554 3597 3450 3475 3470 3616 3473 3396 3567 3546 3526 3515 3476 3562 3534 3546 3534 3586 3549 3602 3539 3529 3423 3486 3460 3553 3371 3570 3421 3495 3506 3444 3542 3463 3429 3552 3460 3474 3543 3492 3538 3526 3504 3501 3500 3461 3732 3490 3508 3433 3475 3568 3465 3482 3542 3514 3560 3489 3347 3407 3467 3515 3553 3412 3532 3546 3558 3535 3470 3480 3440 3553 3585 3441 3378 3441 3443 3386 3392 3342 3399 3378 3388 3321 3394 3344 3349 3296 3380 3485 3394 3427 3411 3487 3447 3455 3447 3422 3481 3532 3459 3621 3475 3545 3632 3533 3635 3565 3606 3623 3719 3829 3754 3599 3598 3650 3681 3615 3615 3543 3559 3530 3531 3477 3476 3428 3515 3570 3542 3563 3460 3448 3596 3413 3573 3575 3438 3544 3553 3499 3560 3588 3473 3405 3545 3526 3519 3518 3558 3568 3527 3550 3381 3503 3525 3443 3490 3447 3457 3478 3465 3565 3475 3435 3399 3457 3427 3430 3495 3542 3489 3471 3514 3437 3430 3403 3391 3479 3453 3553 3421 3485 3333 3371 3407 3512 3567 3412 3410 3382 3397 3419 3433 3318 3419 3399 3361 3469 3423 3543 3312 3518 3333 3477 3316 3364 3389 3417 3388 3426 3420 3354 3289 3417 3322 3408 3567 3356 3356 3492 3479 3299 3347 3366 3373 3329 3354 3406 3439 3425 3430 3350 3444 3430 3552 3384 3342 3348 3509 3432 3423 3560 3438 3583 3433 3475 3486 3456 3420 3358 3380 3422 3372 3353 3369 3346 3452 3476 3335 3287 3331 3208 3351 3361 3303 3346 3370 3314 3315 3381 3360 3357 3374 3349 3598 3399 3392 3399 3412 3394 3461 3331 3366 3411 3467 3503 3373 3442 3412 3385 3435 3516 3488 3509 3460 3440 3559 3615 3546 3528 3472 3544 3563 3483 3508 3567 3529 3485 3547 3477 3520 3590 3620 3651 3725 3672 3679 3687 3714 3644 3745 3785 3864 3986 4117 4214 4200 4279 4263 4394 4503 4536 4587 4509 4436 4338 4435 4411 4240 4054 3975 3928 3873 3890 3746 3699 3773 3699 3722 3769 3737 3685 3550 3605 3620 3582 3543 3496 3611 3476 3512 3465 3506 3512 3501 3573 3526 3537 3373 3474 3497 3497 3465 3519 3413 3566 3592 3575 3684 3612 3762 3607 3658 3716 3745 3687 3790 3926 3928 4030 3983 4071 3837 3861 3897 3751 3759 3805 3709 3836 3624 3745 3658 3722 3624 3598 3510 3706 3627 3469 3635 3545 3673 3633 3655 3606 3593 3601 3527 3599 3507 3605 3422 3553 3636 3576 3666 3572 3712 3712 3751 3622 3651 3633 3612 3631 3567 3670 3655 3723 3729 3686 3757 3691 3707 3774 3629 3727 3869 3759 3803 3675 3785 3633 3693 3760 3598 3716 3543 3567 3555 3822 3806 3596 3694 3815 3753 3816 3669 3740 3769 3825 3812 3753 3837 3788 3841 3725 3745 3922 3825 3932 3881 3952 3879 3866 4034 3909 3995 4144 4206 4126 4146 4132 4087 4110 4160 4191 4137 4240 4187 4187 4165 4346 4272 4299 4414 4304 4512 4319 4395 4240 4463 4368 4454 4391 4393 4471 4342 4430 4304 4258 4353 4480 4502 4494 4454 4639 4752 4848 4839 4881 4906 5236 5191 5395 5616 6009 6299 6445 6836 7275 7737 8341 9208 10059 11146 12060 13428 14842 16507 18327 20758 22979 25500 27894 30173 31006 30281 28029 25877 24251 22822 21101 19062 16477 14320 13046 12035 11074 10401 9650 9224 8556 8523 8236 7914 7809 7597 7438 7369 7299 7053 7001 7042 7108 7110 6855 6968 6889 6565 6366 6259 6026 5939 5825 5518 5428 5116 5027 4909 4962 4734 4745 4671 4769 4609 4701 4611 4823 4788 4978 5090 5205 5450 5677 5964 6182 6299 6179 6127 5891 5777 5593 5423 5158 4941 4780 4723 4407 4330 4220 4110 4120 4062 3926 3966 3889 3755 3776 3891 3840 3723 3756 3760 3824 3739 3710 3589 3734 3748 3797 3736 3708 3837 3816 3764 3773 3758 3705 3716 3815 3739 3709 3727 3814 3775 3644 3857 3826 3743 3784 3789 3896 3805 3827 3864 4018 3945 3858 3937 3972 3965 4029 4171 4173 4191 4103 4150 4306 4205 4220 4150 4236 4263 4085 4080 4103 4019 3875 3847 3934 3814 3852 3832 3791 3889 3833 3742 3767 3745 3747 3596 3808 3700 3723 3767 3767 3661 3643 3649 3601 3612 3565 3592 3660 3581 3664 3674 3463 3574 3583 3542 3575 3635 3519 3498 3575 3394 3563 3576 3551 3451 3473 3620 3638 3581 3564 3585 3598 3562 3635 3583 3477 3613 3571 3519 3557 3566 3500 3497 3595 3544 3550 3591 3635 3646 3535 3588 3617 3638 3797 3719 3879 3850 3718 3782 3950 3922 3941 4116 4225 4251 4379 4554 4585 4694 4911 4889 5113 5442 5370 5324 5313 5430 5627 5809 5910 6084 6461 6524 6830 6683 6448 6341 6039 5817 5676 5413 5201 5041 4783 4434 4298 4259 4055 3950 3967 3780 3740 3708 3762 3656 3694 3666 3625 3644 3588 3577 3527 3642 3543 3462 3556 3588 3478 3504 3691 3555 3777 3530 3542 3614 3630 3682 3687 3697 3713 3747 3709 3776 3648 3624 3804 3740 3649 3839 3829 3831 3958 3961 4039 4044 4089 4168 4085 4089 4016 3916 4072 4085 3903 3993 3780 3827 3839 3742 3666 3730 3585 3657 3635 3701 3578 3539 3665 3682 3580 3547 3584 3504 3521 3483 3472 3513 3521 3510 3571 3568 3470 3501 3574 3669 3645 3608 3710 3567 3589 3649 3755 3715 3739 3861 3731 3881 3975 4079 4110 4047 4162 4348 4438 4521 4744 4859 4958 5144 5385 5482 5854 5922 6302 6563 6888 7303 7610 7930 7744 7644 7182 6810 6649 6408 6191 5994 5552 5193 4913 4780 4624 4444 4347 4228 4159 3966 3890 3913 3822 3872 3817 3782 3842 3875 3698 3706 3760 3714 3664 3672 3741 3732 3713 3731 3782 3798 3695 3678 3752 3936 3910 3752 3841 3896 3948 3992 3992 4137 4120 4111 4165 4234 4282 4361 4282 4453 4619 4748 5042 5128 5316 5474 5757 5951 6118 6356 6335 6433 6473 6338 6427 6360 6107 5982 5902 5658 5349 5303 5078 4823 4680 4659 4482 4361 4289 4222 4085 3945 4019 3759 3779 3657 3698 3621 3525 3526 3486 3594 3480 3509 3387 3557 3538 3386 3403 3336 3409 3402 3536 3437 3444 3512 3439 3481 3437 3402 3458 3420 3480 3459 3570 3481 3577 3520 3606 3526 3597 3685 3658 3548 3622 3625 3767 3732 3680 3796 3689 3711 3765 3757 3868 3804 3757 3744 3732 3718 3667 3600 3512 3570 3613 3611 3583 3635 3593 3703 3677 3781 3865 3853 4014 4141 4225 4361 4405 4375 4451 4166 4117 4161 3989 4080 3746 3906 3698 3589 3496 3455 3390 3334 3385 3190 3230 3266 3193 3194 3231 3208 3162 3135 3036 2984 3097 3096 3167 3187 3008 3035 3019 3032 3091 3044 3092 3061 3049 2974 3104 3063 3122 3094 3048 3110 2916 2987 3076 3010 3026 3002 3022 2978 3014 2976 2965 2979 2990 2911 2968 2956 2923 2995 2908 2917 2934 2884 2953 3004 2942 2976 2890 2951 2825 2984 2910 2905 2948 2974 2968 2964 2930 2877 2825 2932 2936 3007 2847 2854 2887 2974 2919 2962 2929 2941 3060 2959 2898 2932 2891 2909 2939 2919 2866 2984 2819 2886 2879 2938 2962 3033 2991 2919 3042 2959 2904 3027 2945 2945 2817 2802 2967 3031 3055 2976 2960 2927 2954 2878 2949 3019 2890 3009 2994 2891 2910 2957 2883 2955 2837 2970 2997 2939 3004 2973 2939 2901 2929 2932 2891 2882 2961 2978 3028 2975 2916 2974 2933 2937 2972 3029 2925 2933 2893 2971 2858 2915 3014 2880 2808 2893 2824 2888 2828 2866 2907 2929 2959 2888 2847 2844 2915 3017 2977 2851 2878 3006 2972 2783 2873 2939 2903 2983 2917 2898 2914 2910 2811 2998 2921 2969 2848 2906 2915 2900 2973 2913 2867 2995 2824 2892 2929 2836 3036 2868 2948 2878 3000 2865 2878 2917 2993 3026 2912 2925 2962 2936 2985 2978 2989 2868 2895 2809 2905 2967 2903 2857 2927 2862 2801 2854 2892 2896 2822 2813 2854 2840 2931 2881 2815 2843 2770 2832 2813 2929 2710 2778 2832 2741 2927 2738 2915 2759 2797 2861 2782 2745 2783 2948 2791 2780 2771 2748 2806 2861 2823 2751 2771 2801 2946 2793 2780 2807 2776 2833 2837 2832 2715 2707 2780 2761 2707 2748 2802 2793 2785 2816 2792 2795 2702 2842 2791 2900 2862 2762 2752 2808 2829 2870 2838 2865 2851 2828 2719 2816 2913 2827 2836 2722 2740 2748 2940 2816 2783 2781 2733 2729 2817 2913 2739 2792 2871 2750 2828 2740 2758 2751 2811 2891 2721 2817 2779 2879 2825 2831 2762 2885 2864 2887 2761 2792 2812 2807 2924 2855 2979 2897 2927 2959 2950 3011 2975 2999 3026 3017 3057 3113 3166 3150 3228 3254 3241 3308 3412 3518 3579 3609 3772 3840 3800 3754 3860 3967 4202 4266 4328 4370 4287 4132 4070 3934 3791 3884 3715 3724 3677 3533 3459 3422 3310 3252 3237 3248 3145 3151 3057 3081 3074 3062 3025 3007 3060 3031 2939 2897 2867 2926 2838 2882 2974 2905 2793 2798 2841 2872 2811 2777 2716 2818 2781 2755 2734 2766 2762 2702 2780 2759 2737 2748 2728 2694 2667 2725 2705 2895 2700 2738 2616 2646 2745 2731 2714 2731 2721 2787 2818 2765 2893 2920 2725 2791 2797 2817 2769 2787 2666 2830 2642 2690 2630 2679 2746 2632 2715 2576 2608 2621 2628 2717 2648 2747 2629 2668 2605 2599 2707 2601 2632 2675 2738 2661 2659 2588 2670 2682 2753 2683 2551 2585 2625 2607 2663 2637 2674 2573 2670 2618 2717 2661 2630 2615 2671 2712 2696 2528 2645 2617 2558 2692 2641 2718 2617 2704 2728 2696 2712 2742 2551 2561 2674 2728 2659 2687 2668 2636 2569 2582 2654 2633 2633 2714 2677 2601 2791 2655 2661 2600 2664 2642 2584 2638 2559 2695 2588 2634 2567 2642 2604 2728 2651 2619 2623 2617 2696 2545 2630 2696 2584 2680 2712 2591 2605 2526 2717 2625 2587 2617 2630 2668 2656 2656 2581 2617 2550 2745 2631 2665 2579 2668 2645 2598 2612 2627 2627 2583 2549 2620 2567 2558 2537 2670 2592 2626 2650 2595 2577 2617 2635 2687 2611 2613 2695 2710 2618 2527 2762 2662 2690 2709 2691 2700 2724 2669 2836 2860 2814 2863 2883 2885 2843 2822 2783 2796 2855 2757 2851 2792 2779 2705 2749 2776 2649 2615 2655 2628 2563 2577 2616 2637 2578 2625 2619 2565 2617 2605 2613 2582 2607 2526 2695 2621 2653 2632 2592 2769 2701 2640 2648 2744 2764 2747 2708 2784 2726 2677 2680 2812 2758 2787 2775 2933 2878 2877 2982 2974 3160 3131 3195 3078 3238 3420 3329 3482 3513 3754 3687 3562 3431 3305 3313 3175 3296 3325 3262 3103 3096 3047 3002 2865 2875 2855 2669 2756 2706 2769 2704 2639 2723 2624 2686 2623 2671 2603 2642 2669 2598 2584 2655 2584 2551 2721 2553 2548 2594 2619 2573 2570 2557 2597 2484 2550 2480 2513 2601 2595 2592 2464 2650 2564 2538 2532 2520 2572 2522 2582 2654 2589 2550 2442 2568 2564 2539 2507 2526 2583 2536 2521 2599 2572 2570 2574 2615 2577 2584 2464 2490 2401 2558 2600 2646 2579 2565 2542 2519 2507 2583 2533 2521 2582 2447 2529 2543 2582 2518 2536 2635 2562 2453 2558 2457 2585 2570 2445 2482 2575 2544 2582 2638 2570 2559 2595 2680 2660 2545 2573 2629 2655 2510 2583 2621 2432 2500 2621 2467 2503 2584 2498 2514 2443 2472 2545 2444 2471 2348 2482 2510 2471 2463 2556 2467 2489 2431 2410 2459 2441 2463 2461 2406 2439 2472 2380 2538 2485 2497 2490 2421 2461 2378 2492 2543 2383 2374 2435 2487 2465 2374 2590 2546 2307 2527 2431 2563 2514 2467 2476 2557 2500 2547 2522 2479 2408 2431 2481 2426 2421 2445 2466 2412 2361 2509 2525 2443 2451 2399 2406 2464 2393 2402 2525 2462 2531 2480 2456 2397 2469 2443 2411 2540 2362 2483 2386 2460 2447 2379 2506 2370 2330 2527 2452 2461 2464 2469 2396 2452 2437 2475 2442 2472 2374 2530 2347 2471 2495 2534 2421 2486 2463 2422 2429 2582 2469 2441 2569 2456 2466 2520 2551 2497 2428 2487 2363 2416 2539 2487 2565 2548 2525 2550 2547 2519 2620 2559 2584 2549 2497 2464 2494 2479 2603 2505 2488 2614 2423 2398 2444 2442 2482 2454 2478 2460 2441 2514 2420 2450 2383 2492 2439 2525 2414 2512 2412 2429 2372 2367 2411 2374 2386 2427 2420 2450 2419 2424 2435 2364 2418 2317 2517 2490 2376 2457 2370 2392 2409 2479 2410 2410 2391 2459 2364 2392 2345 2406 2429 2389 2374 2416 2486 2471 2373 2418 2420 2372 2407 2436 2366 2462 2374 2446 2436 2369 2487 2509 2433 2474 2429 2529 2529 2458 2357 2501 2445 2408 2439 2546 2423 2456 2420 2481 2446 2434 2390 2397 2456 2407 2402 2369 2417 2384 2409 2331 2407 2383 2438 2387 2311 2378 2376 2356 2458 2395 2285 2389 2422 2361 2264 2309 2338 2471 2365 2439 2298 2359 2375 2470 2390 2386 2394 2436 2417 2400 2414 2412 2467 2371 2358 2464 2411 2425 2357 2485 2484 2410 2366 2400 2483 2352 2429 2433 2362 2337 2444 2433 2404 2322 2459 2368 2378 2378 2320 2401 2359 2369 2388 2454 2331 2405 2335 2387 2402 2395 2463 2568 2460 2510 2481 2472 2444 2408 2572 2447 2513 2599 2494 2601 2709 2701 2515 2584 2633 2666 2566 2659 2802 2780 2888 2872 2808 2853 2860 2934 2991 3037 3177 3095 3251 3326 3563 3547 3685 3774 4141 4212 4371 4463 4258 4169 3972 3775 3604 3515 3530 3591 3647 3567 3541 3491 3384 3205 3040 3021 2952 2795 2745 2686 2748 2688 2765 2612 2551 2539 2517 2471 2528 2536 2665 2550 2662 2560 2593 2495 2561 2525 2560 2553 2627 2687 2770 2694 2658 2644 2636 2609 2608 2620 2594 2529 2615 2567 2548 2601 2487 2547 2500 2466 2445 2474 2459 2415 2415 2355 2338 2400 2378 2401 2324 2369 2413 2310 2286 2382 2217 2271 2327 2259 2265 2328 2340 2338 2346 2292 2229 2210 2310 2221 2326 2349 2282 2275 2258 2294 2314 2250 2341 2285 2266 2263 2244 2300 2241 2216 2247 2226 2327 2277 2211 2257 2175 2211 2347 2216 2300 2280 2293 2335 2308 2288 2336 2247 2296 2266 2256 2388 2231 2297 2260 2378 2183 2278 2327 2197 2229 2273 2298 2240 2225 2286 2202 2257 2350 2154 2069 2143 2184 2185 2192 2210 2229 2251 2175 2341 2185 2259 2191 2210 2152 2210 2251 2217 2144 2145 2176 2213 2261 2246 2255 2260 2214 2213 2239 2222 2210 2278 2276 2270 2262 2314 2236 2291 2194 2234 2259 2289 2244 2247 2249 2335 2267 2232 2297 2226 2232 2388 2224 2337 2361 2393 2432 2286 2379 2464 2378 2387 2398 2272 2344 2301 2364 2289 2355 2314 2332 2309 2314 2232 2217 2166 2289 2220 2083 2187 2272 2226 2178 2185 2199 2228 2075 2126 2219 2097 2088 2172 2180 2208 2218 2111 2061 2116 2190 2105 2179 2193 2072 2151 2173 2154 2184 2211 2164 2191 2216 2288 2238 2205 2279 2272 2297 2369 2294 2353 2310 2328 2375 2407 2309 2327 2408 2368 2407 2354 2430 2398 2462 2481 2495 2576 2506 2557 2665 2569 2578 2517 2485 2425 2383 2306 2385 2282 2358 2315 2318 2346 2304 2267 2301 2269 2352 2174 2229 2190 2198 2256 2154 2147 2082 2016 2109 1989 2040 2110 2006 2029 2095 2117 1974 1943 1960 2034 2111 2031 2050 2023 1953 2099 2127 2002 1980 2109 2043 2032 1989 2092 2064 2010 1929 1890 1959 2007 2019 2001 2000 2070 2041 2069 1999 2009 2172 1926 2001 1979 2041 1999 2028 2007 1959 1989 2074 2081 2015 1981 1994 1937 2031 2011 1967 1874 1956 2011 1935 1968 1971 1981 1963 2102 2090 1978 1943 1943 1974 1980 2012 1917 1948 1963 2034 2005 2032 1940 2037 2025 1917 1903 2008 2021 1952 1976 2035 2020 2007 2102 2063 2026 1939 1975 1946 2083 1896 1944 1995 1922 1885 1923 1926 1996 1960 1955 1925 1871 1842 1921 1929 1917 1914 1936 1857 1919 1881 1972 1897 1887 1936 1867 1887 1863 1936 1890 1850 1898 1909 1905 1935 1825 1905 1860 1916 1886 1825 1898 1880 1864 1842 1928 1826 1888 1862 1818 1812 1829 1823 1903 1872 1879 1885 1836 1909 1860 1851 1885 1783 1906 1831 1907 1878 1823 1875 1894 1832 1851 1811 1881 1845 1922 1840 1869 1869 1918 1833 1894 1896 1871 1814 1894 1795 1809 1811 1859 1808 1829 1864 1866 1811 1816 1923 1861 1894 1885 1865 1774 1844 1816 1877 1819 1927 1929 1777 1856 1781 1814 1883 1822 1864 1763 1787 1813 1867 1798 1748 1848 1827 1811 1810 1772 1781 1816 1714 1730 1753 1750 1751 1767 1730 1833 1759 1755 1815 1785 1833 1803 1756 1697 1777 1720 1782 1767 1775 1801 1785 1816 1761 1829 1714 1768 1711 1751 1761 1841 1711 1766 1792 1695 1732 1699 1693 1774 1713 1785 1712 1693 1731 1759 1741 1740 1715 1817 1789 1737 1745 1675 1694 1744 1752 1798 1733 1759 1675 1792 1697 1759 1752 1808 1689 1719 1669 1676 1776 1796 1715 1681 1754 1786 1695 1754 1765 1668 1716 1710 1762 1732 1736 1759 1789 1682 1694 1772 1755 1638 1764 1702 1690 1710 1676 1727 1761 1693 1721 1699 1716 1726 1585 1639 1677 1667 1788 1686 1680 1656 1713 1708 1656 1720 1750 1628 1669 1680 1640 1745 1660 1671 1682 1664 1728 1626 1637 1628 1696 1628 1636 1733 1683 1672 1613 1688 1653 1689 1697 1593 1616 1749 1612 1607 1611 1617 1722 1616 1642 1533 1610 1558 1634 1665 1617 1568 1617 1683 1602 1565 1594 1671 1603 1588 1693 1650 1557 1579 1603 1553 1544 1623 1545 1621 1580 1524 1599 1535 1575 1626 1622 1607 1595 1614 1557 1535 1613 1684 1602 1585 1683 1652 1609 1636 1583 1515 1615 1656 1666 1639 1626 1673 1610 1683 1632 1763 1719 1684 1790 1657 1696 1771 1787 1793 1839 1809 1787 1780 1907 1904 1952 1954 1926 1909 1830 1871 1857 1811 1745 1732 1793 1701 1714 1769 1682 1763 1706 1760 1726 1675 1610 1670 1707 1625 1636 1569 1560 1543 1588 1582 1603 1596 1504 1560 1507 1598 1553 1559 1490 1501 1492 1483 1548 1488 1561 1518 1480 1459 1479 1520 1477 1471 1466 1486 1497 1454</intensities>
			</dataPoints>
		</scan>
	</xrdMeasurement>
</xrdMeasurements>
